tiempo,amplitud_original,amplitud_filtrada
0.000000,4.000566,4.000566
0.005000,7.391435,4.339653
0.010000,-9.340158,2.971672
0.015000,-1.731468,2.501358
0.020000,5.689153,2.820137
0.025000,9.870880,3.525212
0.030000,8.713779,4.044068
0.035000,6.189502,4.258612
0.040000,16.863290,5.519080
0.045000,10.031160,5.970288
0.050000,18.956860,7.268945
0.055000,22.345540,8.776604
0.060000,3.558526,8.254797
0.065000,10.194300,8.448747
0.070000,12.689150,8.872787
0.075000,12.000000,9.185508
0.080000,5.747487,8.841706
0.085000,0.310847,7.988620
0.090000,5.919299,7.781688
0.095000,-2.919299,6.711590
0.100000,5.902980,6.630729
0.105000,7.391435,6.706799
0.110000,-7.391435,5.296976
0.115000,0.217017,4.788980
0.120000,4.520127,4.762095
0.125000,5.852413,4.871126
0.130000,1.782983,4.562312
0.135000,-1.689153,3.937166
0.140000,5.919299,4.135379
0.145000,-2.010125,3.520829
0.150000,8.000000,3.968746
0.155000,11.391430,4.711014
0.160000,-5.393642,3.700549
0.165000,2.112830,3.541777
0.170000,6.579705,3.845569
0.175000,8.000000,4.261013
0.180000,3.615776,4.196489
0.185000,-0.717646,3.705075
0.190000,6.919299,4.026498
0.195000,-0.919299,3.531918
0.200000,10.965090,4.275235
0.205000,19.253190,5.773031
0.210000,11.608570,6.356585
0.215000,32.146050,8.935531
0.220000,54.689150,13.510893
0.225000,76.914210,19.851225
0.230000,91.782980,27.044400
0.235000,99.310840,34.271044
0.240000,108.919300,41.735870
0.245000,92.080010,46.770284
0.250000,82.000000,50.293255
0.255000,61.391430,51.403073
0.260000,18.608560,48.123622
0.265000,4.085177,43.719777
0.270000,-8.291375,38.518662
0.275000,-18.892520,32.777544
0.280000,-17.217020,27.778087
0.285000,-14.659290,23.534350
0.290000,-2.080701,20.972845
0.295000,-5.889462,18.286614
0.300000,4.000000,16.857953
0.305000,9.209737,16.093131
0.310000,-6.497678,13.834050
0.315000,0.217017,12.472347
0.320000,4.677180,11.692830
0.325000,5.905847,11.114132
0.330000,1.782983,10.181017
0.335000,-4.596254,8.703290
0.340000,2.919299,8.124891
0.345000,-4.810804,6.831321
0.350000,4.112040,6.559393
0.355000,7.391435,6.642597
0.360000,-9.336447,5.044693
0.365000,-1.782983,4.361925
0.370000,2.815233,4.207256
0.375000,4.000000,4.186530
0.380000,-0.217017,3.746176
0.385000,-4.606074,2.910951
0.390000,2.919299,2.911786
0.395000,-2.919299,2.328677
0.400000,6.000000,2.695809
0.405000,10.349800,3.461208
0.410000,-6.500018,2.465086
0.415000,2.217017,2.440279
0.420000,-0.310847,2.165166
0.425000,9.000000,2.848650
0.430000,4.725787,3.036363
0.435000,1.154967,2.848224
0.440000,9.825565,3.545958
0.445000,3.080701,3.499432
0.450000,12.959490,4.445438
0.455000,17.377420,5.738636
0.460000,1.608565,5.325629
0.465000,9.217017,5.714768
0.470000,14.689150,6.612206
0.475000,15.975150,7.548500
0.480000,12.698740,8.063524
0.485000,8.310847,8.088257
0.490000,15.711470,8.850578
0.495000,8.964203,8.861941
0.500000,19.000000,9.875746
0.505000,24.391440,11.327316
0.510000,9.481881,11.142772
0.515000,19.217020,11.950197
0.520000,25.689150,13.324092
0.525000,28.882570,14.879940
0.530000,27.776810,16.169627
0.535000,25.310850,17.083749
0.540000,34.870950,18.862469
0.545000,29.946950,19.970918
0.550000,42.000000,22.173826
0.555000,47.336420,24.690085
0.560000,33.573700,25.578447
0.565000,43.217020,27.342304
0.570000,50.684670,29.676541
0.575000,53.962860,32.105173
0.580000,52.680810,34.162736
0.585000,50.229820,35.769445
0.590000,58.817950,38.074295
0.595000,52.021180,39.468984
0.600000,62.000000,41.722085
0.605000,65.391430,44.089020
0.610000,49.554630,44.635581
0.615000,57.205230,45.892546
0.620000,60.689150,47.372206
0.625000,62.000000,48.834986
0.630000,56.782980,49.629785
0.635000,52.310850,49.897891
0.640000,57.885910,50.696693
0.645000,48.080700,50.435094
0.650000,54.939140,50.885499
0.655000,55.206540,51.317603
0.660000,34.552370,49.641079
0.665000,39.217020,48.598674
0.670000,39.654690,47.704275
0.675000,38.000000,46.733848
0.680000,29.782980,45.038761
0.685000,22.252120,42.760097
0.690000,26.919300,41.176017
0.695000,16.080700,38.666485
0.700000,22.000000,36.999837
0.705000,22.301470,35.530000
0.710000,3.544858,32.331486
0.715000,9.217017,30.020039
0.720000,11.689150,28.186950
0.725000,11.998360,26.568091
0.730000,5.782983,24.489580
0.735000,-0.700933,21.970529
0.740000,5.919299,20.365406
0.745000,-2.919299,18.036936
0.750000,6.000000,16.833242
0.755000,7.391435,15.889061
0.760000,-9.391435,13.361012
0.765000,-1.782983,11.846612
0.770000,2.720378,10.933989
0.775000,4.009974,10.241587
0.780000,-0.163208,9.201108
0.785000,-4.654333,7.815564
0.790000,2.919299,7.325937
0.795000,-4.851895,6.108154
0.800000,4.262016,5.923540
0.805000,7.391435,6.070330
0.810000,-9.297207,4.533576
0.815000,-1.782983,3.901920
0.820000,2.689153,3.780643
0.825000,4.000000,3.802579
0.830000,-0.158480,3.406473
0.835000,-4.684829,2.597343
0.840000,3.007669,2.638376
0.845000,-4.919299,1.882608
0.850000,4.000000,2.094347
0.855000,7.391435,2.624056
0.860000,-9.391435,1.422507
0.865000,-1.720743,1.108182
0.870000,2.689153,1.266279
0.875000,4.000000,1.539651
0.880000,-0.170133,1.368673
0.885000,-4.689153,0.762890
0.890000,2.919299,0.978531
0.895000,-4.863261,0.394352
0.900000,4.002833,0.755200
0.905000,7.408927,1.420573
0.910000,-9.272005,0.351315
0.915000,-1.675392,0.148644
0.920000,2.690512,0.402831
0.925000,4.000000,0.762548
0.930000,-0.217017,0.664591
0.935000,-4.656577,0.132475
0.940000,3.151607,0.434388
0.945000,-4.813591,-0.090410
0.950000,4.023496,0.320981
0.955000,7.391435,1.028026
0.960000,-9.391435,-0.013920
0.965000,-1.782983,-0.190826
0.970000,2.689153,0.097172
0.975000,4.042739,0.491728
0.980000,-0.091668,0.433389
0.985000,-4.677094,-0.077660
0.990000,2.919299,0.222036
0.995000,-4.783010,-0.278468
1.000000,4.000000,0.149378
1.005000,7.391435,0.873584
1.010000,-9.297838,-0.143558
1.015000,-1.781432,-0.307345
1.020000,5.626704,0.286059
1.025000,10.000000,1.257454
1.030000,8.735906,2.005299
1.035000,6.310847,2.435854
1.040000,16.857360,3.878004
1.045000,10.022310,4.492435
1.050000,18.938130,5.937004
1.055000,22.391440,7.582448
1.060000,3.608565,7.185060
1.065000,10.217020,7.488256
1.070000,12.689150,8.008345
1.075000,12.000000,8.407511
1.080000,5.771150,8.143875
1.085000,0.310847,7.360572
1.090000,5.907849,7.215299
1.095000,-2.919299,6.201840
1.100000,6.000000,6.181656
1.105000,7.391435,6.302634
1.110000,-7.391435,4.933227
1.115000,0.144727,4.454377
1.120000,4.537737,4.462713
1.125000,6.000000,4.616441
1.130000,1.782983,4.333096
1.135000,-1.689153,3.730871
1.140000,5.835804,3.941364
1.145000,-1.998811,3.347347
1.150000,7.951925,3.807804
1.155000,11.291860,4.556210
1.160000,-5.391435,3.561445
1.165000,2.217017,3.427003
1.170000,6.624840,3.746786
1.175000,8.000000,4.172108
1.180000,3.782983,4.133195
1.185000,-0.689153,3.650960
1.190000,6.919299,3.977794
1.195000,-0.919299,3.488085
1.200000,10.850290,4.224305
1.205000,19.316450,5.733520
1.210000,11.608570,6.321025
1.215000,32.198210,8.908743
1.220000,54.689150,13.486784
1.225000,77.000000,19.838106
1.230000,91.681840,27.022479
1.235000,99.310840,34.251315
1.240000,108.876800,41.713864
1.245000,91.934290,46.735906
1.250000,82.000000,50.262316
1.255000,61.308030,51.366887
1.260000,18.559280,48.086126
1.265000,4.084095,43.685923
1.270000,-8.310847,38.486246
1.275000,-18.955050,32.742117
1.280000,-17.058870,27.762018
1.285000,-14.689150,23.516901
1.290000,-2.045169,20.960694
1.295000,-5.865960,18.278029
1.300000,4.105396,16.860765
1.305000,9.391435,16.113832
1.310000,-6.501023,13.852347
1.315000,0.217017,12.488814
1.320000,4.689153,11.708848
1.325000,6.000000,11.137963
1.330000,1.782983,10.202465
1.335000,-4.566504,8.725568
1.340000,3.154679,8.168479
1.345000,-4.919299,6.859701
1.350000,4.000000,6.573731
1.355000,7.391435,6.655502
1.360000,-9.391435,5.050808
1.365000,-1.782983,4.367429
1.370000,2.832376,4.213924
1.375000,4.006929,4.193224
1.380000,-0.119959,3.761906
1.385000,-4.524662,2.933249
1.390000,2.919299,2.931854
1.395000,-2.959261,2.342743
1.400000,5.869288,2.695397
1.405000,10.364710,3.462328
1.410000,-6.461905,2.469905
1.415000,2.196089,2.442523
1.420000,-0.310847,2.167186
1.425000,8.928164,2.843284
1.430000,4.669515,3.025907
1.435000,1.274078,2.850724
1.440000,9.919299,3.557582
1.445000,2.992134,3.501037
1.450000,13.000000,4.450933
1.455000,17.378020,5.743642
1.460000,1.583499,5.327628
1.465000,9.217017,5.716567
1.470000,14.689150,6.613825
1.475000,16.000000,7.552442
1.480000,12.782980,8.075496
1.485000,8.310847,8.099031
1.490000,15.919300,8.881058
1.495000,9.080701,8.901022
1.500000,18.945700,9.905490
1.505000,24.243180,11.339259
1.510000,9.608565,11.166190
1.515000,19.147830,11.964354
1.520000,25.689150,13.336833
1.525000,28.917950,14.894945
1.530000,27.658640,16.171315
1.535000,25.171500,17.071333
1.540000,34.919300,18.856130
1.545000,30.080700,19.978587
1.550000,42.000000,22.180728
1.555000,47.391430,24.701798
1.560000,33.608570,25.592475
1.565000,43.217020,27.354930
1.570000,50.689150,29.688352
1.575000,53.922870,32.111804
1.580000,52.768090,34.177432
1.585000,50.244480,35.784137
1.590000,58.919300,38.097653
1.595000,52.080700,39.495958
1.600000,61.968270,41.743189
1.605000,65.391430,44.108013
1.610000,49.509000,44.648112
1.615000,57.217020,45.905003
1.620000,60.689150,47.383418
1.625000,62.000000,48.845076
1.630000,56.782980,49.638866
1.635000,52.310850,49.906065
1.640000,57.786130,50.694071
1.645000,47.934610,50.418125
1.650000,55.000000,50.876313
1.655000,55.322420,51.320923
1.660000,34.585450,49.647376
1.665000,39.131080,48.595746
1.670000,39.689150,47.705087
1.675000,38.000000,46.734578
1.680000,29.782980,45.039418
1.685000,22.310850,42.766561
1.690000,26.919300,41.181835
1.695000,16.080700,38.671722
1.700000,21.884030,36.992953
1.705000,22.391440,35.532801
1.710000,3.515408,32.331062
1.715000,9.058072,30.003763
1.720000,11.689150,28.172302
1.725000,12.000000,26.555072
1.730000,5.717689,24.471333
1.735000,-0.689153,21.955285
1.740000,5.919299,20.351686
1.745000,-3.125302,18.003987
1.750000,5.929445,16.796533
1.755000,7.445367,15.861416
1.760000,-9.386881,13.336587
1.765000,-1.782983,11.824630
1.770000,2.689153,10.911082
1.775000,4.000000,10.219974
1.780000,-0.207884,9.177188
1.785000,-4.689153,7.790554
1.790000,2.945833,7.306082
1.795000,-4.765394,6.098934
1.800000,4.000000,5.889041
1.805000,7.436314,6.043768
1.810000,-9.256070,4.513784
1.815000,-1.743948,3.888011
1.820000,2.749059,3.774116
1.825000,4.000000,3.796704
1.830000,-0.217017,3.395332
1.835000,-4.689153,2.586884
1.840000,2.919299,2.620125
1.845000,-4.919299,1.866183
1.850000,4.000000,2.079564
1.855000,7.537160,2.625324
1.860000,-9.391435,1.423648
1.865000,-1.718989,1.109384
1.870000,2.727684,1.271214
1.875000,4.000000,1.544093
1.880000,-0.217017,1.367982
1.885000,-4.689153,0.762268
1.890000,2.947893,0.980831
1.895000,-4.919299,0.390818
1.900000,4.076950,0.759431
1.905000,7.391435,1.422632
1.910000,-9.391435,0.341225
1.915000,-1.772350,0.129867
1.920000,2.800258,0.396906
1.925000,4.027542,0.759970
1.930000,-0.217017,0.662271
1.935000,-4.689153,0.127129
1.940000,3.047111,0.419127
1.945000,-4.826869,-0.105473
1.950000,4.000000,0.305075
1.955000,7.391435,1.013711
1.960000,-9.391435,-0.026804
1.965000,-1.748650,-0.198988
1.970000,2.689153,0.089826
1.975000,4.000000,0.480843
1.980000,-0.217017,0.411057
1.985000,-4.689153,-0.098964
1.990000,2.919299,0.202862
1.995000,-4.919299,-0.309354
2.000000,4.000000,0.121582
2.005000,7.391435,0.848567
2.010000,-9.316776,-0.167967
2.015000,-1.782983,-0.329469
2.020000,5.689153,0.272393
2.025000,9.966660,1.241820
2.030000,8.753195,1.992957
2.035000,6.310847,2.424746
2.040000,16.919300,3.874202
2.045000,10.041470,4.490929
2.050000,18.918300,5.933666
2.055000,22.340710,7.574370
2.060000,3.608565,7.177790
2.065000,10.217020,7.481713
2.070000,12.689150,8.002456
2.075000,11.951710,8.397382
2.080000,5.782983,8.135942
2.085000,0.310847,7.353432
2.090000,5.878133,7.205902
2.095000,-2.919299,6.193382
2.100000,5.964572,6.170501
2.105000,7.482264,6.301678
2.110000,-7.391435,4.932366
2.115000,0.217017,4.460831
2.120000,4.681686,4.482917
2.125000,6.000000,4.634625
2.130000,1.603617,4.331524
2.135000,-1.689153,3.729457
2.140000,5.919299,3.948441
2.145000,-1.919299,3.361667
2.150000,7.912514,3.816752
2.155000,11.251420,4.560218
2.160000,-5.654273,3.538769
2.165000,2.217017,3.406594
2.170000,6.689153,3.734850
2.175000,7.956567,4.157022
2.180000,3.782983,4.119618
2.185000,-0.752251,3.632431
2.190000,6.789171,3.948105
2.195000,-0.932868,3.460008
2.200000,11.000000,4.214007
2.205000,19.391440,5.731750
2.210000,11.608570,6.319432
2.215000,32.141650,8.901654
2.220000,54.537850,13.465274
2.225000,76.942330,19.812979
2.230000,91.647610,26.996442
2.235000,99.310840,34.227882
2.240000,108.909900,41.696084
2.245000,91.896400,46.716115
2.250000,82.000000,50.244504
2.255000,61.300190,51.350073
2.260000,18.608560,48.075921
2.265000,4.217017,43.690031
2.270000,-8.286923,38.492335
2.275000,-19.000000,32.743102
2.280000,-17.163720,27.752420
2.285000,-14.681660,23.509012
2.290000,-2.058084,20.952302
2.295000,-5.919299,18.265142
2.300000,4.065338,16.845162
2.305000,9.148515,16.075497
2.310000,-6.391435,13.828804
2.315000,0.217017,12.467625
2.320000,4.671086,11.687971
2.325000,6.000000,11.119174
2.330000,1.724433,10.179700
2.335000,-4.670878,8.694642
2.340000,2.919299,8.117108
2.345000,-4.803796,6.825017
2.350000,4.047994,6.547315
2.355000,7.530028,6.645586
2.360000,-9.391435,5.041884
2.365000,-1.782983,4.359398
2.370000,2.721483,4.195606
2.375000,4.145839,4.190629
2.380000,-0.217017,3.749865
2.385000,-4.689153,2.905963
2.390000,3.046974,2.920064
2.395000,-2.919299,2.336128
2.400000,5.980523,2.700567
2.405000,10.391430,3.469654
2.410000,-6.391435,2.483545
2.415000,2.217017,2.456892
2.420000,-0.310847,2.180118
2.425000,8.953280,2.857434
2.430000,4.758370,3.047528
2.435000,1.310847,2.873860
2.440000,9.903234,3.576797
2.445000,3.080701,3.527188
2.450000,12.967030,4.471172
2.455000,17.320850,5.756140
2.460000,1.608565,5.341382
2.465000,9.217017,5.728946
2.470000,14.689150,6.624966
2.475000,15.791610,7.541630
2.480000,12.768980,8.064365
2.485000,8.128494,8.070778
2.490000,15.919300,8.855630
2.495000,9.080701,8.878138
2.500000,19.000000,9.890324
2.505000,24.391440,11.340435
2.510000,9.608565,11.167248
2.515000,19.217020,11.972226
2.520000,25.684490,13.343452
2.525000,28.997150,14.908822
2.530000,27.782980,16.196238
2.535000,25.310850,17.107699
2.540000,34.873210,18.884250
2.545000,29.901970,19.986022
2.550000,41.771470,22.164567
2.555000,47.230180,24.671128
2.560000,33.509560,25.554971
2.565000,43.217020,27.321176
2.570000,50.612570,29.650316
2.575000,53.992470,32.084531
2.580000,52.782980,34.154376
2.585000,50.173230,35.756261
2.590000,58.835270,38.064162
2.595000,52.006760,39.458422
2.600000,61.920820,41.704662
2.605000,65.348510,44.069047
2.610000,49.608570,44.622999
2.615000,57.167270,45.877426
2.620000,60.689150,47.358598
2.625000,62.000000,48.822739
2.630000,56.782980,49.618763
2.635000,52.310850,49.887971
2.640000,57.919300,50.691104
2.645000,48.080700,50.430064
2.650000,54.842600,50.871317
2.655000,55.391430,51.323329
2.660000,34.484880,49.639484
2.665000,39.016940,48.577229
2.670000,39.569080,47.676415
2.675000,37.782810,46.687054
2.680000,29.670850,44.985434
2.685000,22.310850,42.717975
2.690000,26.872650,41.133443
2.695000,16.080700,38.628168
2.700000,22.000000,36.965352
2.705000,22.391440,35.507960
2.710000,3.594965,32.316661
2.715000,9.190060,30.004001
2.720000,11.611820,28.164783
2.725000,12.000000,26.548304
2.730000,5.635689,24.457043
2.735000,-0.773160,21.934023
2.740000,5.813376,20.321958
2.745000,-2.919299,17.997832
2.750000,6.000000,16.798049
2.755000,7.608188,15.879063
2.760000,-9.391435,13.352013
2.765000,-1.747308,11.842081
2.770000,2.689153,10.926788
2.775000,4.000000,10.234109
2.780000,-0.205679,9.190131
2.785000,-4.689153,7.802202
2.790000,2.925411,7.314523
2.795000,-4.841448,6.098926
2.800000,4.000000,5.889033
2.805000,7.391435,6.039274
2.810000,-9.391435,4.496203
2.815000,-1.782983,3.868284
2.820000,2.789038,3.760360
2.825000,4.000000,3.784324
2.830000,-0.176932,3.388198
2.835000,-4.689153,2.580463
2.840000,2.942199,2.616637
2.845000,-4.919299,1.863043
2.850000,4.000000,2.076739
2.855000,7.391435,2.608208
2.860000,-9.391435,1.408244
2.865000,-1.782983,1.089121
2.870000,2.697321,1.249941
2.875000,4.000000,1.524947
2.880000,-0.217017,1.350751
2.885000,-4.555297,0.760146
2.890000,2.919299,0.976061
2.895000,-4.919299,0.386525
2.900000,4.000000,0.747873
2.905000,7.391435,1.412229
2.910000,-9.297535,0.341253
2.915000,-1.782983,0.128829
2.920000,2.777310,0.393677
2.925000,4.023653,0.756675
2.930000,-0.217017,0.659305
2.935000,-4.689153,0.124460
2.940000,2.938034,0.405817
2.945000,-4.919299,-0.126695
2.950000,4.000000,0.285975
2.955000,7.391435,0.996521
2.960000,-9.336522,-0.036783
2.965000,-1.729817,-0.206087
2.970000,2.689153,0.083437
2.975000,4.083613,0.483455
2.980000,-0.217017,0.413408
2.985000,-4.689153,-0.096848
2.990000,3.043781,0.217215
2.995000,-4.919299,-0.296437
